Time	Cd Total	Cd Pressure	Cd Viscous
1	0.05989320	0.05056540	0.00932775
2	0.14935200	0.13736400	0.01198820
3	0.23611900	0.22121500	0.01490450
4	0.28376200	0.26611500	0.01764700
5	0.27923900	0.25935300	0.01988590
6	0.23207700	0.21050400	0.02157390
7	0.16528600	0.14259200	0.02269410
8	0.10336900	0.08003650	0.02333220
9	0.06437380	0.04084360	0.02353010
10	0.05590250	0.03251920	0.02338340
11	0.07433770	0.05133740	0.02300020
12	0.10843000	0.08598780	0.02244240
13	0.14520600	0.12343700	0.02176880
14	0.17423900	0.15322000	0.02101950
15	0.19033100	0.17009800	0.02023310
16	0.19338800	0.17395000	0.01943730
17	0.18725600	0.16859500	0.01866060
18	0.17738200	0.15945800	0.01792470
19	0.16881100	0.15156300	0.01724760
20	0.16477300	0.14814000	0.01663300
21	0.16631400	0.15023400	0.01608060
22	0.17265700	0.15706800	0.01558860
23	0.18191400	0.16675500	0.01515890
24	0.19186800	0.17708000	0.01478850
25	0.20074800	0.18627400	0.01447360
26	0.20755900	0.19335100	0.01420770
27	0.21219200	0.19821000	0.01398150
28	0.21525700	0.20146700	0.01379010
29	0.21760500	0.20397800	0.01362630
30	0.22004800	0.20656200	0.01348580
31	0.22318000	0.20981600	0.01336380
32	0.22717400	0.21391800	0.01325560
33	0.23206000	0.21890100	0.01315850
34	0.23744700	0.22437600	0.01307110
35	0.24294600	0.22995500	0.01299120
36	0.24822800	0.23531100	0.01291720
37	0.25307900	0.24023100	0.01284880
38	0.25747800	0.24469300	0.01278520
39	0.26143900	0.24871500	0.01272400
40	0.26503100	0.25236700	0.01266340
41	0.26834200	0.25574000	0.01260260
42	0.27146400	0.25892500	0.01253930
43	0.27447800	0.26200400	0.01247380
44	0.27750300	0.26509700	0.01240540
45	0.28058000	0.26824700	0.01233370
46	0.28366900	0.27141100	0.01225800
47	0.28667100	0.27449300	0.01217800
48	0.28950600	0.27741100	0.01209460
49	0.29214800	0.28013900	0.01200930
50	0.29456400	0.28264300	0.01192110
51	0.29672500	0.28489600	0.01182930
52	0.29864600	0.28691300	0.01173330
53	0.30035800	0.28872500	0.01163240
54	0.30188600	0.29035800	0.01152750
55	0.30322000	0.29179900	0.01142050
56	0.30440000	0.29308500	0.01131470
57	0.30546000	0.29425000	0.01121040
58	0.30646900	0.29536100	0.01110820
59	0.30747200	0.29646300	0.01100880
60	0.30854400	0.29763000	0.01091400
61	0.30968300	0.29885900	0.01082410
62	0.31094800	0.30021000	0.01073750
63	0.31236100	0.30170700	0.01065390
64	0.31399300	0.30342000	0.01057290
65	0.31583500	0.30533900	0.01049610
66	0.31785400	0.30743000	0.01042410
67	0.31996800	0.30961100	0.01035640
68	0.32208000	0.31178700	0.01029300
69	0.32408800	0.31385500	0.01023330
70	0.32591500	0.31573800	0.01017770
71	0.32746000	0.31733200	0.01012890
72	0.32863700	0.31855000	0.01008690
73	0.32939300	0.31934000	0.01005270
74	0.32969800	0.31967200	0.01002580
75	0.32966000	0.31965700	0.01000320
76	0.32942000	0.31943500	0.00998511
77	0.32911100	0.31913600	0.00997509
78	0.32879500	0.31882400	0.00997096
79	0.32846300	0.31849100	0.00997215
80	0.32805700	0.31808000	0.00997729
81	0.32752900	0.31754200	0.00998658
82	0.32687000	0.31687000	0.01000020
83	0.32608900	0.31607200	0.01001790
84	0.32514900	0.31511000	0.01003930
85	0.32415400	0.31408900	0.01006450
86	0.32309100	0.31299800	0.01009290
87	0.32209400	0.31197100	0.01012320
88	0.32122200	0.31106800	0.01015410
89	0.32050400	0.31032000	0.01018420
90	0.31992500	0.30971200	0.01021300
91	0.31950700	0.30926800	0.01023910
92	0.31925700	0.30899500	0.01026250
93	0.31916600	0.30888300	0.01028300
94	0.31924300	0.30894300	0.01030060
95	0.31953500	0.30921900	0.01031580
96	0.32006500	0.30973600	0.01032860
97	0.32085800	0.31051900	0.01033870
98	0.32190000	0.31155300	0.01034610
99	0.32319700	0.31284700	0.01035020
100	0.32470300	0.31435300	0.01035050
101	0.32634000	0.31599300	0.01034700
102	0.32805000	0.31771100	0.01033950
103	0.32978600	0.31945900	0.01032760
104	0.33148900	0.32117800	0.01031100
105	0.33309700	0.32280700	0.01028990
106	0.33450400	0.32423900	0.01026450
107	0.33563600	0.32540200	0.01023480
108	0.33640800	0.32620700	0.01020110
109	0.33679700	0.32663400	0.01016260
110	0.33676000	0.32663900	0.01012110
111	0.33633200	0.32625300	0.01007870
112	0.33552600	0.32549000	0.01003610
113	0.33441300	0.32442000	0.00999306
114	0.33303300	0.32308400	0.00994880
115	0.33148000	0.32157700	0.00990253
116	0.32979200	0.31993800	0.00985471
117	0.32803200	0.31822700	0.00980593
118	0.32623500	0.31647900	0.00975615
119	0.32445700	0.31475000	0.00970627
120	0.32272300	0.31306600	0.00965681
121	0.32112500	0.31151600	0.00960861
122	0.31975700	0.31019500	0.00956215
123	0.31865000	0.30913300	0.00951621
124	0.31781600	0.30834500	0.00947126
125	0.31721500	0.30778700	0.00942758
126	0.31679200	0.30740800	0.00938475
127	0.31644000	0.30709800	0.00934272
128	0.31608400	0.30678300	0.00930146
129	0.31562300	0.30636300	0.00926095
130	0.31499100	0.30577000	0.00922074
131	0.31416500	0.30498600	0.00917933
132	0.31313700	0.30400000	0.00913645
133	0.31193900	0.30284600	0.00909348
134	0.31057100	0.30151900	0.00905194
135	0.30908300	0.30007300	0.00901040
136	0.30749000	0.29852100	0.00896837
137	0.30583400	0.29690900	0.00892519
138	0.30413600	0.29525500	0.00888103
139	0.30246600	0.29362800	0.00883773
140	0.30085100	0.29205500	0.00879589
141	0.29935600	0.29059900	0.00875697
142	0.29798800	0.28926500	0.00872240
143	0.29678000	0.28808700	0.00869266
144	0.29573700	0.28707100	0.00866648
145	0.29490400	0.28626000	0.00864359
146	0.29429500	0.28567200	0.00862266
147	0.29392700	0.28532200	0.00860470
148	0.29380100	0.28521000	0.00859062
149	0.29390900	0.28532800	0.00858117
150	0.29423600	0.28566000	0.00857643
151	0.29474400	0.28616800	0.00857646
152	0.29539600	0.28681500	0.00858124
153	0.29616400	0.28757400	0.00859004
154	0.29699100	0.28838800	0.00860265
155	0.29786700	0.28924900	0.00861860
156	0.29873700	0.29009900	0.00863749
157	0.29960100	0.29094200	0.00865884
158	0.30040000	0.29171800	0.00868187
159	0.30110300	0.29239700	0.00870589
160	0.30169200	0.29296300	0.00872947
161	0.30214700	0.29339500	0.00875120
162	0.30246600	0.29369500	0.00877088
163	0.30267300	0.29388400	0.00878869
164	0.30278600	0.29398200	0.00880414
165	0.30278800	0.29397100	0.00881732
166	0.30268400	0.29385600	0.00882835
167	0.30242300	0.29358500	0.00883741
168	0.30199300	0.29314800	0.00884536
169	0.30133700	0.29248500	0.00885256
170	0.30043100	0.29157000	0.00886007
171	0.29926700	0.29039900	0.00886832
172	0.29788700	0.28900900	0.00887769
173	0.29631100	0.28742300	0.00888800
174	0.29459400	0.28569500	0.00889921
175	0.29281200	0.28390000	0.00891128
176	0.29100300	0.28208000	0.00892318
177	0.28920100	0.28026700	0.00893413
178	0.28745100	0.27850700	0.00894389
179	0.28577800	0.27682600	0.00895253
180	0.28419000	0.27523000	0.00896052
181	0.28268900	0.27372100	0.00896803
182	0.28121800	0.27224300	0.00897448
183	0.27968500	0.27070500	0.00897993
184	0.27802300	0.26903900	0.00898387
185	0.27616800	0.26718200	0.00898593
186	0.27416300	0.26517700	0.00898553
187	0.27201600	0.26303400	0.00898209
188	0.26981900	0.26084300	0.00897594
189	0.26759800	0.25863100	0.00896692
190	0.26543000	0.25647600	0.00895475
191	0.26328900	0.25434900	0.00893948
192	0.26120200	0.25228000	0.00892250
193	0.25912100	0.25021600	0.00890454
194	0.25706300	0.24817600	0.00888716
195	0.25495600	0.24608500	0.00887100
196	0.25282500	0.24396800	0.00885626
197	0.25062200	0.24177700	0.00884446
198	0.24841300	0.23957700	0.00883594
199	0.24620600	0.23737500	0.00883132
200	0.24407900	0.23524800	0.00883094
201	0.24202000	0.23318400	0.00883547
202	0.24010800	0.23126200	0.00884614
203	0.23831400	0.22945000	0.00886314
204	0.23668800	0.22780100	0.00888677
205	0.23516700	0.22624900	0.00891772
206	0.23373200	0.22477600	0.00895518
207	0.23234200	0.22334300	0.00899900
208	0.23098900	0.22193900	0.00904984
209	0.22966900	0.22056300	0.00910682
210	0.22836200	0.21919300	0.00916969
211	0.22707700	0.21784000	0.00923723
212	0.22582800	0.21652100	0.00930769
213	0.22464100	0.21526200	0.00937848
214	0.22351100	0.21406300	0.00944754
215	0.22245800	0.21294400	0.00951342
216	0.22147100	0.21189500	0.00957540
217	0.22054400	0.21091100	0.00963320
218	0.21966400	0.20997700	0.00968715
219	0.21882600	0.20908900	0.00973774
220	0.21801000	0.20822500	0.00978521
221	0.21718600	0.20735700	0.00982930
222	0.21632600	0.20645700	0.00986984
223	0.21543800	0.20553100	0.00990727
224	0.21450900	0.20456600	0.00994224
225	0.21354400	0.20356900	0.00997494
226	0.21251600	0.20251100	0.01000550
227	0.21144200	0.20140900	0.01003370
228	0.21031600	0.20025700	0.01005920
229	0.20913000	0.19904800	0.01008190
230	0.20786500	0.19776300	0.01010200
231	0.20650400	0.19638500	0.01011900
232	0.20500600	0.19487300	0.01013280
233	0.20334300	0.19320000	0.01014270
234	0.20148900	0.19134100	0.01014870
235	0.19943100	0.18928000	0.01015060
236	0.19718700	0.18703700	0.01014920
237	0.19478600	0.18464000	0.01014530
238	0.19224900	0.18211000	0.01013920
239	0.18961000	0.17947900	0.01013080
240	0.18690400	0.17678300	0.01012030
241	0.18417600	0.17406900	0.01010730
242	0.18146100	0.17136900	0.01009240
243	0.17878300	0.16870800	0.01007490
244	0.17615000	0.16609500	0.01005490
245	0.17356000	0.16352700	0.01003250
246	0.17101100	0.16100300	0.01000790
247	0.16849900	0.15851800	0.00998108
248	0.16603800	0.15608600	0.00995221
249	0.16360200	0.15368100	0.00992142
250	0.16119100	0.15130200	0.00988901
251	0.15880900	0.14895400	0.00985568
252	0.15647100	0.14665000	0.00982158
253	0.15419800	0.14441100	0.00978669
254	0.15200200	0.14225100	0.00975179
255	0.14989500	0.14017900	0.00971668
256	0.14788600	0.13820400	0.00968147
257	0.14593400	0.13628700	0.00964648
258	0.14408500	0.13447300	0.00961158
259	0.14237200	0.13279500	0.00957692
260	0.14083000	0.13128800	0.00954290
261	0.13943900	0.12993000	0.00950945
262	0.13818300	0.12870600	0.00947683
263	0.13705600	0.12761100	0.00944513
264	0.13602200	0.12660700	0.00941470
265	0.13507200	0.12568600	0.00938541
266	0.13420300	0.12484600	0.00935752
267	0.13343400	0.12410300	0.00933100
268	0.13280200	0.12349600	0.00930601
269	0.13234600	0.12306400	0.00928240
270	0.13208200	0.12282200	0.00926031
271	0.13200200	0.12276300	0.00923959
272	0.13209300	0.12287300	0.00922003
273	0.13235800	0.12315700	0.00920125
274	0.13278700	0.12360300	0.00918327
275	0.13338600	0.12422000	0.00916587
276	0.13413100	0.12498200	0.00914897
277	0.13503000	0.12589800	0.00913231
278	0.13607800	0.12696200	0.00911585
279	0.13727300	0.12817300	0.00909940
280	0.13861900	0.12953700	0.00908266
281	0.14007700	0.13101100	0.00906591
282	0.14162800	0.13257900	0.00904909
283	0.14325300	0.13422000	0.00903274
284	0.14497200	0.13595500	0.00901681
285	0.14677500	0.13777300	0.00900201
286	0.14871200	0.13972300	0.00898892
287	0.15075100	0.14177300	0.00897728
288	0.15291200	0.14394500	0.00896675
289	0.15517600	0.14621900	0.00895691
290	0.15753200	0.14858500	0.00894726
291	0.15993000	0.15099300	0.00893708
292	0.16234000	0.15341400	0.00892587
293	0.16475700	0.15584500	0.00891267
294	0.16719300	0.15829600	0.00889668
295	0.16969300	0.16081500	0.00887756
296	0.17230900	0.16345400	0.00885513
297	0.17511800	0.16628800	0.00882971
298	0.17812000	0.16931800	0.00880145
299	0.18133400	0.17256400	0.00877043
300	0.18466600	0.17592900	0.00873672
301	0.18807200	0.17937100	0.00870063
302	0.19148000	0.18281800	0.00866243
303	0.19481300	0.18619100	0.00862235
304	0.19795000	0.18936900	0.00858064
305	0.20077700	0.19223900	0.00853715
306	0.20322900	0.19473700	0.00849146
307	0.20528400	0.19684000	0.00844377
308	0.20691500	0.19852200	0.00839322
309	0.20812000	0.19978000	0.00834008
310	0.20889200	0.20060600	0.00828516
311	0.20924200	0.20101300	0.00822919
312	0.20920200	0.20102900	0.00817295
313	0.20877600	0.20065900	0.00811676
314	0.20799300	0.19993400	0.00805968
315	0.20688200	0.19888100	0.00800165
316	0.20551200	0.19756900	0.00794340
317	0.20395000	0.19606400	0.00788597
318	0.20228500	0.19445500	0.00783028
319	0.20064700	0.19287000	0.00777656
320	0.19910800	0.19138400	0.00772398
321	0.19773000	0.19005800	0.00767194
322	0.19652800	0.18890800	0.00762000
323	0.19552300	0.18795500	0.00756789
324	0.19471600	0.18720000	0.00751588
325	0.19413000	0.18666600	0.00746420
326	0.19375600	0.18634300	0.00741316
327	0.19361500	0.18625100	0.00736400
328	0.19371000	0.18639300	0.00731713
329	0.19403000	0.18675700	0.00727303
330	0.19454800	0.18731600	0.00723209
331	0.19523700	0.18804200	0.00719470
332	0.19607400	0.18891300	0.00716113
333	0.19703700	0.18990500	0.00713189
334	0.19810200	0.19099400	0.00710758
335	0.19924800	0.19216000	0.00708848
336	0.20045100	0.19337600	0.00707486
337	0.20170300	0.19463600	0.00706690
338	0.20298200	0.19591800	0.00706475
339	0.20427800	0.19721000	0.00706825
340	0.20557400	0.19849700	0.00707704
341	0.20687700	0.19978600	0.00709116
342	0.20821900	0.20110800	0.00711051
343	0.20960400	0.20247000	0.00713488
344	0.21104500	0.20388100	0.00716388
345	0.21255400	0.20535700	0.00719744
346	0.21415400	0.20691800	0.00723568
347	0.21587800	0.20859900	0.00727879
348	0.21774000	0.21041300	0.00732689
349	0.21976000	0.21238000	0.00737964
350	0.22192500	0.21448900	0.00743653
351	0.22423700	0.21673900	0.00749777
352	0.22667300	0.21911100	0.00756280
353	0.22925200	0.22162000	0.00763110
354	0.23190100	0.22419800	0.00770234
355	0.23454600	0.22677100	0.00777569
356	0.23712700	0.22927700	0.00785035
357	0.23959000	0.23166400	0.00792591
358	0.24189000	0.23388800	0.00800201
359	0.24399500	0.23591700	0.00807816
360	0.24586300	0.23770900	0.00815366
361	0.24745300	0.23922500	0.00822814
362	0.24873400	0.24043200	0.00830159
363	0.24968400	0.24131000	0.00837391
364	0.25029400	0.24184900	0.00844465
365	0.25056300	0.24204900	0.00851359
366	0.25052200	0.24194200	0.00858054
367	0.25020800	0.24156200	0.00864554
368	0.24966500	0.24095600	0.00870844
369	0.24894900	0.24018000	0.00876936
370	0.24812500	0.23929700	0.00882846
371	0.24724500	0.23835900	0.00888583
372	0.24636200	0.23742000	0.00894208
373	0.24550600	0.23650800	0.00899767
374	0.24468300	0.23563000	0.00905300
375	0.24388700	0.23477900	0.00910822
376	0.24311800	0.23395500	0.00916362
377	0.24234900	0.23313100	0.00921862
378	0.24158000	0.23230700	0.00927296
379	0.24078900	0.23146300	0.00932642
380	0.23997000	0.23059100	0.00937870
381	0.23908200	0.22965200	0.00942935
382	0.23811900	0.22864100	0.00947829
383	0.23706200	0.22753600	0.00952580
384	0.23591100	0.22633900	0.00957180
385	0.23467700	0.22506100	0.00961633
386	0.23338000	0.22372000	0.00965940
387	0.23203000	0.22232800	0.00970138
388	0.23064600	0.22090400	0.00974240
389	0.22925100	0.21946800	0.00978245
390	0.22786600	0.21804500	0.00982154
391	0.22650700	0.21664800	0.00985966
392	0.22519600	0.21529900	0.00989697
393	0.22394700	0.21401300	0.00993364
394	0.22274500	0.21277600	0.00996983
395	0.22162200	0.21161600	0.01000570
396	0.22058900	0.21054800	0.01004140
397	0.21969200	0.20961500	0.01007700
398	0.21893600	0.20882300	0.01011240
399	0.21835300	0.20820600	0.01014760
400	0.21794000	0.20775800	0.01018220
401	0.21772000	0.20750400	0.01021580
402	0.21767200	0.20742400	0.01024780
403	0.21781600	0.20753900	0.01027760
404	0.21813600	0.20783100	0.01030470
405	0.21864300	0.20831500	0.01032860
406	0.21933800	0.20898900	0.01034880
407	0.22022100	0.20985500	0.01036520
408	0.22128300	0.21090600	0.01037750
409	0.22249300	0.21210700	0.01038610
410	0.22379600	0.21340500	0.01039150
411	0.22514400	0.21475000	0.01039420
412	0.22648100	0.21608600	0.01039520
413	0.22775300	0.21735800	0.01039470
414	0.22894000	0.21854700	0.01039320
415	0.23004600	0.21965500	0.01039110
416	0.23109600	0.22070800	0.01038850
417	0.23212200	0.22173600	0.01038590
418	0.23314400	0.22276000	0.01038370
419	0.23417100	0.22378900	0.01038240
420	0.23519600	0.22481400	0.01038190
421	0.23621700	0.22583500	0.01038200
422	0.23720800	0.22682600	0.01038280
423	0.23815800	0.22777300	0.01038420
424	0.23905000	0.22866400	0.01038600
425	0.23989900	0.22951100	0.01038810
426	0.24068600	0.23029600	0.01039050
427	0.24141100	0.23101800	0.01039290
428	0.24204900	0.23165300	0.01039550
429	0.24258700	0.23218900	0.01039840
430	0.24303600	0.23263400	0.01040160
431	0.24340700	0.23300100	0.01040540
432	0.24368900	0.23327900	0.01040980
433	0.24390200	0.23348700	0.01041500
434	0.24403800	0.23361700	0.01042110
435	0.24411000	0.23368100	0.01042820
436	0.24410800	0.23367200	0.01043640
437	0.24402700	0.23358100	0.01044570
438	0.24383800	0.23338100	0.01045670
439	0.24354200	0.23307300	0.01046930
440	0.24310700	0.23262400	0.01048380
441	0.24254400	0.23204400	0.01050000
442	0.24184300	0.23132500	0.01051790
443	0.24104200	0.23050500	0.01053720
444	0.24014500	0.22958800	0.01055750
445	0.23918000	0.22860100	0.01057870
446	0.23813100	0.22753000	0.01060080
447	0.23702000	0.22639600	0.01062370
448	0.23584300	0.22519600	0.01064710
449	0.23461200	0.22394200	0.01067090
450	0.23331600	0.22262200	0.01069440
451	0.23195300	0.22123600	0.01071690
452	0.23051300	0.21977600	0.01073700
453	0.22898100	0.21822700	0.01075430
454	0.22737000	0.21660100	0.01076880
455	0.22568000	0.21489900	0.01078070
456	0.22392400	0.21313400	0.01079020
457	0.22212000	0.21132300	0.01079750
458	0.22028000	0.20947700	0.01080310
459	0.21840300	0.20759600	0.01080720
460	0.21649900	0.20569000	0.01080960
461	0.21454000	0.20373000	0.01080990
462	0.21252500	0.20171700	0.01080850
463	0.21042900	0.19962300	0.01080580
464	0.20825000	0.19744800	0.01080220
465	0.20592900	0.19513100	0.01079770
466	0.20345400	0.19266100	0.01079250
467	0.20083400	0.19004800	0.01078680
468	0.19807300	0.18729200	0.01078030
469	0.19513500	0.18436300	0.01077260
470	0.19199400	0.18123000	0.01076370
471	0.18869900	0.17794600	0.01075340
472	0.18528500	0.17454300	0.01074160
473	0.18180600	0.17107800	0.01072790
474	0.17829100	0.16757900	0.01071190
475	0.17476300	0.16406900	0.01069360
476	0.17121900	0.16054500	0.01067340
477	0.16768000	0.15702800	0.01065140
478	0.16417200	0.15354400	0.01062780
479	0.16074500	0.15014200	0.01060270
480	0.15743500	0.14685800	0.01057630
481	0.15426100	0.14371300	0.01054890
482	0.15122200	0.14070200	0.01052050
483	0.14832300	0.13783200	0.01049130
484	0.14557000	0.13510900	0.01046120
485	0.14299600	0.13256500	0.01043070
486	0.14061300	0.13021300	0.01039970
487	0.13844700	0.12807900	0.01036820
488	0.13655400	0.12621800	0.01033580
489	0.13493500	0.12463200	0.01030280
490	0.13358800	0.12331800	0.01026960
491	0.13248600	0.12224900	0.01023630
492	0.13162000	0.12141700	0.01020300
493	0.13097600	0.12080600	0.01016950
494	0.13055800	0.12042200	0.01013590
495	0.13032400	0.12022200	0.01010250
496	0.13027300	0.12020400	0.01006940
497	0.13039500	0.12035900	0.01003690
498	0.13066900	0.12066400	0.01000520
499	0.13111400	0.12114000	0.00997419
500	0.13173600	0.12179200	0.00994383
501	0.13257100	0.12265700	0.00991413
502	0.13359200	0.12370600	0.00988551
503	0.13480700	0.12494900	0.00985788
504	0.13619500	0.12636300	0.00983142
505	0.13778500	0.12797900	0.00980594
506	0.13957700	0.12979600	0.00978136
507	0.14159200	0.13183400	0.00975745
508	0.14380500	0.13407100	0.00973427
509	0.14621900	0.13650700	0.00971170
510	0.14881300	0.13912300	0.00968986
511	0.15156700	0.14189800	0.00966856
512	0.15444000	0.14479300	0.00964735
513	0.15740700	0.14778100	0.00962621
514	0.16041200	0.15080700	0.00960467
515	0.16344200	0.15386000	0.00958220
516	0.16648600	0.15692800	0.00955853
517	0.16955600	0.16002200	0.00953378
518	0.17266400	0.16315700	0.00950775
519	0.17584800	0.16636800	0.00948001
520	0.17912700	0.16967700	0.00945025
521	0.18246100	0.17304300	0.00941821
522	0.18577000	0.17638600	0.00938384
523	0.18897300	0.17962600	0.00934689
524	0.19201100	0.18270300	0.00930747
525	0.19484700	0.18558200	0.00926585
526	0.19748900	0.18826600	0.00922294
527	0.19992500	0.19074500	0.00917932
528	0.20217900	0.19304400	0.00913566
529	0.20424800	0.19515600	0.00909223
530	0.20613100	0.19708200	0.00904855
531	0.20783000	0.19882500	0.00900406
532	0.20935400	0.20039600	0.00895843
533	0.21069500	0.20178400	0.00891103
534	0.21185100	0.20299000	0.00886138
535	0.21281600	0.20400600	0.00881001
536	0.21356100	0.20480400	0.00875740
537	0.21411000	0.20540600	0.00870425
538	0.21444500	0.20579300	0.00865177
539	0.21454100	0.20594100	0.00859977
540	0.21439500	0.20584600	0.00854897
541	0.21403400	0.20553400	0.00850070
542	0.21347700	0.20502200	0.00845482
