Time	Cd Total	Cd Pressure	Cd Viscous
1	0.04735810	0.04695910	0.00039901
2	0.07654100	0.07605370	0.00048736
3	0.09759330	0.09701610	0.00057715
4	0.10610000	0.10542000	0.00068018
5	0.10251600	0.10173300	0.00078349
6	0.09051440	0.08964690	0.00086741
7	0.07608440	0.07514680	0.00093757
8	0.06219530	0.06120490	0.00099047
9	0.05123120	0.05019890	0.00103231
10	0.04386680	0.04281320	0.00105360
11	0.03954350	0.03849050	0.00105299
12	0.03828450	0.03725150	0.00103297
13	0.03918440	0.03817760	0.00100682
14	0.04105530	0.04007200	0.00098332
15	0.04278310	0.04181820	0.00096489
16	0.04391880	0.04297080	0.00094800
17	0.04434220	0.04341190	0.00093035
18	0.04412960	0.04321840	0.00091113
19	0.04346150	0.04257030	0.00089120
20	0.04258700	0.04171660	0.00087042
21	0.04172740	0.04087820	0.00084925
22	0.04100230	0.04017390	0.00082842
23	0.04046270	0.03965360	0.00080914
24	0.04005990	0.03926780	0.00079208
25	0.03972810	0.03895060	0.00077748
26	0.03939390	0.03862890	0.00076506
27	0.03900500	0.03825080	0.00075427
28	0.03854240	0.03779780	0.00074462
29	0.03800310	0.03726760	0.00073550
30	0.03739890	0.03667230	0.00072662
31	0.03673790	0.03602030	0.00071764
32	0.03603390	0.03532540	0.00070854
33	0.03530280	0.03460350	0.00069928
34	0.03456060	0.03387070	0.00068995
35	0.03383420	0.03315360	0.00068065
36	0.03314240	0.03247090	0.00067148
37	0.03250870	0.03184610	0.00066258
38	0.03194580	0.03129180	0.00065398
39	0.03146710	0.03082130	0.00064582
40	0.03108090	0.03044270	0.00063821
41	0.03078600	0.03015490	0.00063114
42	0.03057780	0.02995310	0.00062465
43	0.03045420	0.02983550	0.00061870
44	0.03040720	0.02979400	0.00061329
45	0.03041830	0.02981000	0.00060836
46	0.03047130	0.02986740	0.00060389
47	0.03055350	0.02995360	0.00059992
48	0.03065200	0.03005570	0.00059638
49	0.03076650	0.03017320	0.00059327
50	0.03089490	0.03030440	0.00059053
51	0.03103810	0.03045000	0.00058814
52	0.03119740	0.03061140	0.00058606
53	0.03137120	0.03078690	0.00058426
54	0.03155700	0.03097430	0.00058269
55	0.03174930	0.03116800	0.00058129
56	0.03193750	0.03135750	0.00057999
57	0.03210730	0.03152850	0.00057883
58	0.03224690	0.03166910	0.00057778
59	0.03235100	0.03177420	0.00057676
60	0.03241440	0.03183870	0.00057571
61	0.03242970	0.03185510	0.00057468
62	0.03239860	0.03182490	0.00057369
63	0.03232570	0.03175300	0.00057275
64	0.03222020	0.03164830	0.00057181
65	0.03208130	0.03151040	0.00057088
66	0.03191170	0.03134170	0.00056994
67	0.03171330	0.03114420	0.00056903
68	0.03149330	0.03092520	0.00056813
69	0.03125780	0.03069050	0.00056730
70	0.03101230	0.03044570	0.00056656
71	0.03075920	0.03019330	0.00056588
72	0.03050340	0.02993820	0.00056525
73	0.03024820	0.02968350	0.00056463
74	0.02999620	0.02943220	0.00056402
75	0.02974880	0.02918540	0.00056337
76	0.02950810	0.02894540	0.00056267
77	0.02927550	0.02871370	0.00056184
78	0.02905090	0.02849010	0.00056083
79	0.02883110	0.02827140	0.00055963
80	0.02861330	0.02805520	0.00055815
81	0.02839730	0.02784100	0.00055630
82	0.02818360	0.02762950	0.00055404
83	0.02797320	0.02742190	0.00055136
84	0.02776950	0.02722110	0.00054831
85	0.02757350	0.02702850	0.00054501
86	0.02738750	0.02684590	0.00054155
87	0.02721560	0.02667750	0.00053808
88	0.02706020	0.02652550	0.00053476
89	0.02692300	0.02639120	0.00053171
90	0.02680040	0.02627130	0.00052905
91	0.02669310	0.02616630	0.00052683
92	0.02659970	0.02607460	0.00052504
93	0.02651970	0.02599610	0.00052363
94	0.02644870	0.02592620	0.00052250
95	0.02638560	0.02586410	0.00052153
96	0.02632710	0.02580650	0.00052055
97	0.02627310	0.02575370	0.00051943
98	0.02622040	0.02570230	0.00051804
99	0.02617010	0.02565380	0.00051631
100	0.02611840	0.02560420	0.00051423
101	0.02606540	0.02555360	0.00051185
102	0.02600920	0.02550000	0.00050926
103	0.02595020	0.02544360	0.00050656
104	0.02588630	0.02538240	0.00050389
105	0.02581630	0.02531490	0.00050137
106	0.02573790	0.02523880	0.00049911
107	0.02565320	0.02515610	0.00049715
108	0.02556070	0.02506510	0.00049556
109	0.02546140	0.02496710	0.00049431
110	0.02535410	0.02486070	0.00049339
111	0.02524090	0.02474810	0.00049277
112	0.02512230	0.02462990	0.00049239
113	0.02500000	0.02450780	0.00049220
114	0.02487470	0.02438250	0.00049215
115	0.02474750	0.02425530	0.00049219
116	0.02461930	0.02412700	0.00049227
117	0.02449090	0.02399860	0.00049236
118	0.02436230	0.02386980	0.00049246
119	0.02423310	0.02374060	0.00049255
120	0.02410340	0.02361080	0.00049264
121	0.02397250	0.02347970	0.00049275
122	0.02384100	0.02334810	0.00049290
123	0.02370900	0.02321590	0.00049308
124	0.02357780	0.02308450	0.00049332
125	0.02344890	0.02295530	0.00049363
126	0.02332460	0.02283060	0.00049401
127	0.02320550	0.02271110	0.00049448
128	0.02309500	0.02259990	0.00049504
129	0.02299490	0.02249920	0.00049570
130	0.02290750	0.02241110	0.00049646
131	0.02283440	0.02233710	0.00049732
132	0.02277670	0.02227840	0.00049825
133	0.02273400	0.02223480	0.00049925
134	0.02270470	0.02220440	0.00050027
135	0.02268590	0.02218460	0.00050127
136	0.02267420	0.02217200	0.00050218
137	0.02266670	0.02216370	0.00050297
138	0.02265970	0.02215610	0.00050360
139	0.02265040	0.02214640	0.00050404
140	0.02263520	0.02213090	0.00050426
141	0.02261250	0.02210820	0.00050424
142	0.02258130	0.02207730	0.00050396
143	0.02254210	0.02203870	0.00050341
144	0.02249310	0.02199040	0.00050261
145	0.02243430	0.02193280	0.00050157
146	0.02236590	0.02186560	0.00050031
147	0.02228810	0.02178920	0.00049885
148	0.02220170	0.02170450	0.00049721
149	0.02210870	0.02161330	0.00049542
150	0.02201100	0.02151750	0.00049350
151	0.02191040	0.02141890	0.00049149
152	0.02180810	0.02131870	0.00048941
153	0.02170470	0.02121740	0.00048730
154	0.02160150	0.02111630	0.00048519
155	0.02149980	0.02101670	0.00048311
156	0.02140040	0.02091930	0.00048113
157	0.02130390	0.02082460	0.00047927
158	0.02121070	0.02073310	0.00047759
159	0.02112050	0.02064430	0.00047611
160	0.02103320	0.02055830	0.00047490
161	0.02094870	0.02047470	0.00047399
162	0.02086730	0.02039390	0.00047342
163	0.02078910	0.02031590	0.00047321
164	0.02071390	0.02024050	0.00047342
165	0.02064280	0.02016880	0.00047405
166	0.02057610	0.02010100	0.00047508
167	0.02051550	0.02003900	0.00047652
168	0.02046000	0.01998170	0.00047834
169	0.02040930	0.01992880	0.00048050
170	0.02036220	0.01987920	0.00048297
171	0.02031870	0.01983300	0.00048567
172	0.02027800	0.01978950	0.00048856
173	0.02024040	0.01974890	0.00049157
174	0.02020550	0.01971090	0.00049467
175	0.02017360	0.01967580	0.00049779
176	0.02014420	0.01964330	0.00050090
177	0.02011680	0.01961280	0.00050403
178	0.02009050	0.01958340	0.00050715
179	0.02006510	0.01955490	0.00051022
180	0.02004080	0.01952760	0.00051322
181	0.02001710	0.01950100	0.00051611
182	0.01999470	0.01947590	0.00051887
183	0.01997320	0.01945170	0.00052147
184	0.01995330	0.01942940	0.00052391
185	0.01993430	0.01940810	0.00052617
186	0.01991650	0.01938830	0.00052823
187	0.01989960	0.01936950	0.00053010
188	0.01988440	0.01935260	0.00053179
189	0.01987080	0.01933750	0.00053330
190	0.01985930	0.01932460	0.00053465
191	0.01984910	0.01931320	0.00053586
192	0.01984080	0.01930390	0.00053691
193	0.01983320	0.01929540	0.00053782
194	0.01982660	0.01928800	0.00053858
195	0.01982040	0.01928120	0.00053920
196	0.01981420	0.01927460	0.00053966
197	0.01980760	0.01926770	0.00053995
198	0.01980060	0.01926060	0.00054002
199	0.01979220	0.01925230	0.00053984
200	0.01978140	0.01924210	0.00053936
201	0.01976670	0.01922820	0.00053856
202	0.01974780	0.01921040	0.00053742
203	0.01972410	0.01918820	0.00053595
204	0.01969600	0.01916180	0.00053423
205	0.01966380	0.01913140	0.00053239
206	0.01962680	0.01909620	0.00053056
207	0.01958660	0.01905770	0.00052893
208	0.01954360	0.01901600	0.00052766
209	0.01949990	0.01897300	0.00052691
210	0.01945660	0.01892980	0.00052679
211	0.01941650	0.01888910	0.00052739
212	0.01938030	0.01885160	0.00052877
213	0.01935010	0.01881930	0.00053084
214	0.01932670	0.01879310	0.00053357
215	0.01931200	0.01877510	0.00053688
216	0.01930610	0.01876540	0.00054067
217	0.01930920	0.01876440	0.00054481
218	0.01932020	0.01877100	0.00054918
219	0.01933790	0.01878430	0.00055366
220	0.01936090	0.01880270	0.00055816
221	0.01938730	0.01882480	0.00056258
222	0.01941670	0.01884980	0.00056687
223	0.01944810	0.01887720	0.00057096
224	0.01948180	0.01890690	0.00057483
225	0.01951690	0.01893850	0.00057845
226	0.01955300	0.01897120	0.00058181
227	0.01958940	0.01900450	0.00058493
228	0.01962510	0.01903730	0.00058783
229	0.01965920	0.01906870	0.00059052
230	0.01969070	0.01909770	0.00059301
231	0.01972050	0.01912520	0.00059532
232	0.01974870	0.01915130	0.00059746
233	0.01977670	0.01917720	0.00059948
234	0.01980470	0.01920340	0.00060136
235	0.01983390	0.01923080	0.00060315
236	0.01986420	0.01925940	0.00060484
237	0.01989590	0.01928950	0.00060646
238	0.01992850	0.01932050	0.00060801
239	0.01996170	0.01935220	0.00060950
240	0.01999500	0.01938400	0.00061094
241	0.02002860	0.01941620	0.00061233
242	0.02006260	0.01944890	0.00061367
243	0.02009740	0.01948240	0.00061496
244	0.02013330	0.01951710	0.00061621
245	0.02017010	0.01955270	0.00061741
246	0.02020770	0.01958920	0.00061855
247	0.02024580	0.01962620	0.00061965
248	0.02028390	0.01966320	0.00062068
249	0.02032120	0.01969950	0.00062165
250	0.02035660	0.01973410	0.00062255
251	0.02038890	0.01976550	0.00062338
252	0.02041660	0.01979250	0.00062413
253	0.02043870	0.01981390	0.00062478
254	0.02045320	0.01982790	0.00062535
255	0.02046080	0.01983500	0.00062582
256	0.02046230	0.01983610	0.00062618
257	0.02045970	0.01983330	0.00062644
258	0.02045350	0.01982690	0.00062659
259	0.02044390	0.01981730	0.00062664
260	0.02043110	0.01980450	0.00062660
261	0.02041520	0.01978870	0.00062647
262	0.02039680	0.01977050	0.00062626
263	0.02037620	0.01975020	0.00062598
264	0.02035440	0.01972880	0.00062565
265	0.02033190	0.01970670	0.00062526
266	0.02030880	0.01968390	0.00062484
267	0.02028510	0.01966070	0.00062439
268	0.02026050	0.01963660	0.00062393
269	0.02023540	0.01961190	0.00062346
270	0.02020940	0.01958640	0.00062298
271	0.02018340	0.01956090	0.00062251
272	0.02015710	0.01953510	0.00062205
273	0.02013120	0.01950960	0.00062160
274	0.02010560	0.01948440	0.00062116
275	0.02008040	0.01945970	0.00062074
276	0.02005520	0.01943490	0.00062034
277	0.02003050	0.01941050	0.00061995
278	0.02000640	0.01938680	0.00061958
279	0.01998400	0.01936480	0.00061922
280	0.01996380	0.01934490	0.00061887
281	0.01994580	0.01932730	0.00061854
282	0.01993010	0.01931180	0.00061823
283	0.01991720	0.01929920	0.00061793
284	0.01990690	0.01928920	0.00061764
285	0.01989910	0.01928170	0.00061738
286	0.01989390	0.01927680	0.00061713
287	0.01989110	0.01927430	0.00061689
288	0.01989030	0.01927360	0.00061666
289	0.01989150	0.01927500	0.00061644
290	0.01989460	0.01927840	0.00061624
291	0.01989940	0.01928330	0.00061604
292	0.01990500	0.01928920	0.00061584
293	0.01991020	0.01929460	0.00061565
294	0.01991550	0.01930000	0.00061545
295	0.01992120	0.01930590	0.00061523
296	0.01992740	0.01931240	0.00061500
297	0.01993300	0.01931830	0.00061475
298	0.01993690	0.01932240	0.00061449
299	0.01993680	0.01932260	0.00061418
300	0.01993100	0.01931710	0.00061382
301	0.01991690	0.01930360	0.00061338
302	0.01989340	0.01928050	0.00061286
303	0.01985870	0.01924650	0.00061225
304	0.01981280	0.01920120	0.00061156
305	0.01975510	0.01914430	0.00061078
306	0.01968610	0.01907620	0.00060991
307	0.01960560	0.01899660	0.00060894
308	0.01951450	0.01890660	0.00060787
309	0.01941250	0.01880580	0.00060671
310	0.01930210	0.01869670	0.00060547
311	0.01918400	0.01857980	0.00060416
312	0.01906120	0.01845840	0.00060280
313	0.01893560	0.01833420	0.00060140
314	0.01880960	0.01820960	0.00059998
315	0.01868520	0.01808670	0.00059857
316	0.01856490	0.01796770	0.00059718
317	0.01845120	0.01785530	0.00059584
318	0.01834610	0.01775150	0.00059458
319	0.01825120	0.01765780	0.00059340
320	0.01816530	0.01757300	0.00059229
321	0.01809000	0.01749880	0.00059128
322	0.01802410	0.01743370	0.00059034
323	0.01796770	0.01737820	0.00058948
324	0.01791990	0.01733120	0.00058869
325	0.01788000	0.01729200	0.00058795
326	0.01784690	0.01725960	0.00058729
327	0.01781910	0.01723240	0.00058668
328	0.01779380	0.01720770	0.00058613
329	0.01776960	0.01718400	0.00058562
330	0.01774420	0.01715900	0.00058517
331	0.01771690	0.01713210	0.00058477
332	0.01768690	0.01710240	0.00058442
333	0.01765440	0.01707030	0.00058414
334	0.01762020	0.01703620	0.00058392
335	0.01758360	0.01699980	0.00058375
336	0.01754570	0.01696210	0.00058366
337	0.01750660	0.01692300	0.00058366
338	0.01746820	0.01688450	0.00058374
339	0.01743080	0.01684680	0.00058392
340	0.01739560	0.01681140	0.00058420
341	0.01736280	0.01677820	0.00058458
342	0.01733330	0.01674820	0.00058506
343	0.01730590	0.01672020	0.00058564
344	0.01728060	0.01669430	0.00058629
345	0.01725560	0.01666860	0.00058699
346	0.01723070	0.01664300	0.00058773
347	0.01720430	0.01661580	0.00058845
348	0.01717670	0.01658760	0.00058911
349	0.01714710	0.01655740	0.00058967
350	0.01711640	0.01652630	0.00059005
351	0.01708440	0.01649420	0.00059020
352	0.01705230	0.01646220	0.00059005
353	0.01701970	0.01643020	0.00058956
354	0.01698700	0.01639840	0.00058865
355	0.01695530	0.01636800	0.00058731
356	0.01692440	0.01633900	0.00058548
357	0.01689460	0.01631140	0.00058312
358	0.01686520	0.01628490	0.00058022
359	0.01683660	0.01625990	0.00057674
360	0.01680830	0.01623560	0.00057269
361	0.01678070	0.01621260	0.00056805
362	0.01675430	0.01619150	0.00056283
363	0.01673000	0.01617300	0.00055703
364	0.01670750	0.01615690	0.00055066
365	0.01668660	0.01614290	0.00054376
366	0.01666620	0.01612980	0.00053637
367	0.01664340	0.01611490	0.00052850
368	0.01661870	0.01609830	0.00052031
369	0.01659330	0.01608150	0.00051186
370	0.01656790	0.01606470	0.00050325
371	0.01654330	0.01604870	0.00049461
372	0.01652050	0.01603440	0.00048611
373	0.01649440	0.01601650	0.00047791
374	0.01646150	0.01599130	0.00047020
375	0.01641810	0.01595500	0.00046315
376	0.01636490	0.01590800	0.00045693
377	0.01630850	0.01585680	0.00045169
378	0.01624940	0.01580190	0.00044754
379	0.01619180	0.01574730	0.00044456
380	0.01613520	0.01569250	0.00044273
381	0.01607780	0.01563580	0.00044200
382	0.01601880	0.01557660	0.00044222
383	0.01595910	0.01551590	0.00044312
384	0.01590080	0.01545640	0.00044444
385	0.01584690	0.01540100	0.00044589
386	0.01579790	0.01535070	0.00044721
387	0.01575560	0.01530740	0.00044816
388	0.01572140	0.01527280	0.00044857
389	0.01569370	0.01524540	0.00044829
390	0.01567670	0.01522940	0.00044731
391	0.01566820	0.01522250	0.00044566
392	0.01566520	0.01522170	0.00044344
393	0.01566300	0.01522220	0.00044082
394	0.01565820	0.01522020	0.00043801
395	0.01564480	0.01520950	0.00043526
396	0.01561610	0.01518340	0.00043270
397	0.01556670	0.01513620	0.00043047
398	0.01549150	0.01506290	0.00042858
399	0.01538680	0.01495980	0.00042704
400	0.01525200	0.01482610	0.00042585
401	0.01508830	0.01466330	0.00042497
402	0.01490060	0.01447620	0.00042436
403	0.01469520	0.01427120	0.00042401
404	0.01448010	0.01405620	0.00042392
405	0.01426080	0.01383670	0.00042409
406	0.01404540	0.01362080	0.00042455
407	0.01383820	0.01341290	0.00042534
408	0.01364520	0.01321870	0.00042647
409	0.01347050	0.01304250	0.00042801
410	0.01331550	0.01288550	0.00042998
411	0.01318000	0.01274770	0.00043236
412	0.01306340	0.01262820	0.00043513
413	0.01296600	0.01252780	0.00043821
414	0.01288800	0.01244660	0.00044145
415	0.01282970	0.01238490	0.00044475
416	0.01278980	0.01234180	0.00044799
417	0.01276730	0.01231610	0.00045115
418	0.01275990	0.01230570	0.00045422
419	0.01276630	0.01230910	0.00045719
420	0.01278440	0.01232440	0.00046003
421	0.01281160	0.01234890	0.00046271
422	0.01284640	0.01238120	0.00046521
423	0.01288710	0.01241950	0.00046755
424	0.01293150	0.01246170	0.00046977
425	0.01297690	0.01250510	0.00047190
426	0.01302310	0.01254920	0.00047396
427	0.01306670	0.01259080	0.00047598
428	0.01310750	0.01262950	0.00047800
429	0.01314400	0.01266400	0.00048001
430	0.01317550	0.01269350	0.00048201
431	0.01320110	0.01271710	0.00048399
432	0.01322110	0.01273520	0.00048595
433	0.01323560	0.01274770	0.00048789
434	0.01324470	0.01275490	0.00048978
435	0.01324970	0.01275810	0.00049163
436	0.01325130	0.01275790	0.00049346
437	0.01324930	0.01275410	0.00049526
438	0.01324580	0.01274880	0.00049705
439	0.01324120	0.01274240	0.00049882
440	0.01323600	0.01273540	0.00050058
441	0.01323100	0.01272870	0.00050232
442	0.01322630	0.01272220	0.00050405
443	0.01322260	0.01271680	0.00050574
444	0.01321940	0.01271200	0.00050740
445	0.01321730	0.01270830	0.00050904
446	0.01321560	0.01270490	0.00051066
447	0.01321470	0.01270240	0.00051228
448	0.01321440	0.01270050	0.00051387
449	0.01321520	0.01269980	0.00051544
450	0.01321670	0.01269970	0.00051698
451	0.01322040	0.01270190	0.00051851
452	0.01322520	0.01270520	0.00052000
453	0.01323130	0.01270990	0.00052147
454	0.01323800	0.01271510	0.00052291
455	0.01324560	0.01272130	0.00052430
456	0.01325320	0.01272750	0.00052565
457	0.01326150	0.01273460	0.00052696
458	0.01327000	0.01274170	0.00052822
459	0.01327950	0.01275010	0.00052943
460	0.01328910	0.01275850	0.00053058
461	0.01329900	0.01276730	0.00053168
462	0.01330830	0.01277560	0.00053272
463	0.01331710	0.01278330	0.00053371
464	0.01332490	0.01279030	0.00053464
465	0.01333230	0.01279680	0.00053552
466	0.01333900	0.01280270	0.00053635
467	0.01334540	0.01280830	0.00053712
468	0.01335120	0.01281340	0.00053783
469	0.01335700	0.01281860	0.00053849
470	0.01336190	0.01282280	0.00053911
471	0.01336660	0.01282700	0.00053968
472	0.01337050	0.01283030	0.00054021
473	0.01337430	0.01283360	0.00054070
474	0.01337690	0.01283580	0.00054116
475	0.01337920	0.01283760	0.00054160
476	0.01338020	0.01283810	0.00054200
477	0.01338090	0.01283850	0.00054239
478	0.01338030	0.01283750	0.00054275
479	0.01337960	0.01283660	0.00054309
480	0.01337780	0.01283440	0.00054342
481	0.01337590	0.01283220	0.00054374
482	0.01337270	0.01282870	0.00054405
483	0.01336920	0.01282480	0.00054434
484	0.01336400	0.01281940	0.00054463
485	0.01335830	0.01281340	0.00054491
486	0.01335120	0.01280610	0.00054517
487	0.01334360	0.01279820	0.00054541
488	0.01333480	0.01278920	0.00054564
489	0.01332550	0.01277970	0.00054585
490	0.01331530	0.01276930	0.00054605
491	0.01330470	0.01275850	0.00054622
492	0.01329330	0.01274690	0.00054636
493	0.01328140	0.01273490	0.00054648
494	0.01326870	0.01272210	0.00054656
495	0.01325520	0.01270860	0.00054661
496	0.01324120	0.01269450	0.00054662
497	0.01322660	0.01268000	0.00054660
498	0.01321170	0.01266520	0.00054655
499	0.01319640	0.01265000	0.00054648
500	0.01318080	0.01263440	0.00054638
501	0.01316500	0.01261880	0.00054626
502	0.01314860	0.01260250	0.00054613
503	0.01313150	0.01258560	0.00054598
504	0.01311350	0.01256770	0.00054581
505	0.01309460	0.01254900	0.00054563
506	0.01307470	0.01252920	0.00054544
507	0.01305400	0.01250880	0.00054524
508	0.01303280	0.01248780	0.00054504
509	0.01301140	0.01246660	0.00054483
510	0.01299020	0.01244560	0.00054462
511	0.01296950	0.01242510	0.00054441
512	0.01294920	0.01240500	0.00054420
513	0.01292950	0.01238550	0.00054400
514	0.01291040	0.01236660	0.00054380
515	0.01289190	0.01234830	0.00054362
516	0.01287450	0.01233100	0.00054344
517	0.01285800	0.01231470	0.00054327
518	0.01284280	0.01229970	0.00054310
519	0.01282910	0.01228620	0.00054293
520	0.01281710	0.01227430	0.00054277
521	0.01280650	0.01226390	0.00054259
522	0.01279780	0.01225540	0.00054241
523	0.01279090	0.01224870	0.00054222
524	0.01278580	0.01224380	0.00054200
525	0.01278230	0.01224050	0.00054174
526	0.01278050	0.01223910	0.00054143
527	0.01278040	0.01223930	0.00054107
528	0.01278210	0.01224150	0.00054063
529	0.01278560	0.01224550	0.00054011
530	0.01279120	0.01225170	0.00053948
531	0.01279900	0.01226020	0.00053875
532	0.01280880	0.01227090	0.00053790
533	0.01282090	0.01228400	0.00053691
534	0.01283540	0.01229960	0.00053576
535	0.01285240	0.01231790	0.00053446
536	0.01287200	0.01233910	0.00053296
537	0.01289410	0.01236280	0.00053124
538	0.01291840	0.01238910	0.00052931
539	0.01294480	0.01241770	0.00052712
540	0.01297330	0.01244860	0.00052466
541	0.01300400	0.01248210	0.00052190
542	0.01303680	0.01251800	0.00051882
